#height[m] U[m/s] V[m/s] W[m/s]
 0.0  -0.4405472403480167  2.7271247853223657  -0.021673287601441285
10.0  -0.9073068945107855  5.801572666718182  -0.021813827598295022
20.0  -1.0095087069706907  6.749744374544318  -0.021191879443042225
30.0  -1.0469848520217995  7.377033778580682  -0.01685244736506946
40.0  -1.061344035168198  7.891118242105682  -0.01617124476004496
50.0  -1.0523878912396767  8.358542045746592  -0.012982114168596882
60.0  -1.028561212170667  8.794721327422728  -0.01241062265808734
70.0  -0.9870566507034516  9.2076760436875  -0.009588472136294955
80.0  -0.9330830976484953  9.597206711092044  -0.009278899667156601
90.0  -0.8686545746896115  9.969854835372727  -0.006978347735988646
100.0  -0.7882402850656761  10.324176225646593  -0.006771628576201976
110.0  -0.6973490270082345  10.661752124704543  -0.00499509519448359
120.0  -0.6006915652204662  10.980492671853408  -0.004821012023204453
130.0  -0.49272217036511046  11.282306245977272  -0.003599146555869879
140.0  -0.3800512191121907  11.57256925913182  -0.0036606388863974614
150.0  -0.25871477152795114  11.849844884317044  -0.0028066733167663306
160.0  -0.13623961797559656  12.120842002720456  -0.003177928741799828
170.0  -0.007422387474922889  12.379931791379544  -0.0026157602921407248
180.0  0.12485825265092601  12.630296336886364  -0.0030368377128076607
190.0  0.2627559865674848  12.869136183897727  -0.0027136089916279292
200.0  0.4049005437708665  13.102947245590908  -0.0033093460848133316
210.0  0.5489935070179556  13.324585957147725  -0.0034571250034168234
220.0  0.6932352997790113  13.53673781640909  -0.004309328916439431
230.0  0.837671937924876  13.742911213863636  -0.005013380853251057
240.0  0.9773161221446921  13.911269028977271  -0.005982777803558563
250.0  1.1533425346693738  14.138520131170454  -0.006585234263628082
260.0  1.2852841200698888  14.305143621090908  0.008069602138341632
270.0  1.428791496806789  14.475263387306818  -0.005152679844651109
280.0  1.5765768306668522  14.635628018  0.007283549625784866
290.0  1.7276036666209091  14.79191844515909  -0.0038766400551633784
300.0  1.8774036378553032  14.945585275170453  0.006550731943804502
310.0  2.0260442155345455  15.087159677897727  -0.0027599081900459323
320.0  2.1744376123179547  15.227972840397726  0.00610531249934353
330.0  2.321242378307386  15.360788382159091  -0.0017501401079107004
340.0  2.467741392204432  15.491677097693183  0.005687776733158802
350.0  2.6113614137975003  15.61299455440909  -0.0008205176704033418
360.0  2.7564579660522726  15.735151918  0.0053899808806466476
370.0  2.897398598720455  15.844872072409089  -0.00011189075238347841
380.0  3.0372390474852273  15.955730353738637  0.005189782847422814
390.0  3.171328498520454  16.059299084579546  0.00048674177543527465
400.0  3.307145011734091  16.162115896534093  0.005070378305018536
410.0  3.436747576278409  16.257001567363638  0.0010383023823602859
420.0  3.566628740281818  16.351946530420456  0.0049874720011697125
430.0  3.690006241851137  16.43980888304545  0.0014137773617435207
440.0  3.8099188164375004  16.527009241590907  0.004915003189020833
450.0  3.9243269405829544  16.606927282875002  0.0017331018804817172
460.0  4.036394160594318  16.687273409954546  0.004895018208717302
470.0  4.139318889725001  16.758807933636362  0.0019820775141354222
480.0  4.235211175068182  16.83006293768182  0.004883563080852936
490.0  4.321963595796591  16.898782252170452  0.0021551676347987773
500.0  4.386480341644318  16.964420945386365  0.004988056915700965
