#height[m] U[m/s] V[m/s] W[m/s]
 0.0  -0.5294675875327407  -0.5294675875327407  -0.5294675875327407
10.0  -0.8427248266523604  -0.8427248266523604  -0.8427248266523604
20.0  -0.9704257914328659  -0.9704257914328659  -0.9704257914328659
30.0  -1.012035662336869  -1.012035662336869  -1.012035662336869
40.0  -1.0147162090274  -1.0147162090274  -1.0147162090274
50.0  -0.989115697583019  -0.989115697583019  -0.989115697583019
60.0  -0.940055112068745  -0.940055112068745  -0.940055112068745
70.0  -0.8756051082700677  -0.8756051082700677  -0.8756051082700677
80.0  -0.8013922711696765  -0.8013922711696765  -0.8013922711696765
90.0  -0.7218963381848957  -0.7218963381848957  -0.7218963381848957
100.0  -0.6455896609000379  -0.6455896609000379  -0.6455896609000379
110.0  -0.571317682721779  -0.571317682721779  -0.571317682721779
120.0  -0.5022702747404827  -0.5022702747404827  -0.5022702747404827
130.0  -0.43149234004844317  -0.43149234004844317  -0.43149234004844317
140.0  -0.36023346817511154  -0.36023346817511154  -0.36023346817511154
150.0  -0.2801245561018259  -0.2801245561018259  -0.2801245561018259
160.0  -0.1883476313391711  -0.1883476313391711  -0.1883476313391711
170.0  -0.0844943483416818  -0.0844943483416818  -0.0844943483416818
180.0  0.03234272610551534  0.03234272610551534  0.03234272610551534
190.0  0.15637050188340035  0.15637050188340035  0.15637050188340035
200.0  0.2915792671812294  0.2915792671812294  0.2915792671812294
210.0  0.43186685963044735  0.43186685963044735  0.43186685963044735
220.0  0.5761523027422116  0.5761523027422116  0.5761523027422116
230.0  0.719326053068763  0.719326053068763  0.719326053068763
240.0  0.8762984445752252  0.8762984445752252  0.8762984445752252
250.0  1.0364291695142112  1.0364291695142112  1.0364291695142112
260.0  1.2332022809728909  1.2332022809728909  1.2332022809728909
270.0  1.3743398141911007  1.3743398141911007  1.3743398141911007
280.0  1.527783674481255  1.527783674481255  1.527783674481255
290.0  1.6710750616773373  1.6710750616773373  1.6710750616773373
300.0  1.8181057058307943  1.8181057058307943  1.8181057058307943
310.0  1.960761829313909  1.960761829313909  1.960761829313909
320.0  2.106106174533011  2.106106174533011  2.106106174533011
330.0  2.2501177565514774  2.2501177565514774  2.2501177565514774
340.0  2.398968387245  2.398968387245  2.398968387245
350.0  2.540385471493409  2.540385471493409  2.540385471493409
360.0  2.6861520301897723  2.6861520301897723  2.6861520301897723
370.0  2.8292763199295456  2.8292763199295456  2.8292763199295456
380.0  2.973311199053409  2.973311199053409  2.973311199053409
390.0  3.1071163251613636  3.1071163251613636  3.1071163251613636
400.0  3.246229322918182  3.246229322918182  3.246229322918182
410.0  3.3758670837670457  3.3758670837670457  3.3758670837670457
420.0  3.5083514978545454  3.5083514978545454  3.5083514978545454
430.0  3.633811313131818  3.633811313131818  3.633811313131818
440.0  3.7572292614090905  3.7572292614090905  3.7572292614090905
450.0  3.8714943716704546  3.8714943716704546  3.8714943716704546
460.0  3.986128983489773  3.986128983489773  3.986128983489773
470.0  4.094304097992046  4.094304097992046  4.094304097992046
480.0  4.196439300734091  4.196439300734091  4.196439300734091
490.0  4.28978586525  4.28978586525  4.28978586525
500.0  4.364390917717046  4.364390917717046  4.364390917717046
