#height[m], Uprec[m/s], Uturb[m/s], diff[m/s], plane_dist[D]
 0.0, 3.7141319916928417, 3.6436152277079095, 0.07051676398493223, -32
10.0, 5.543677682143339, 5.5218992587598335, 0.02177842338350544, -32
20.0, 6.707965132667027, 6.702734894922793, 0.005230237744234145, -32
30.0, 7.370485694005817, 7.369503046367837, 0.0009826476379801719, -32
40.0, 7.926322641005081, 7.926138706907603, 0.00018393409747829992, -32
50.0, 8.436091615359254, 8.435740677601418, 0.00035093775783678893, -32
60.0, 8.881784855582389, 8.881899299268714, -0.00011444368632496094, -32
70.0, 9.308120045400837, 9.30821384144349, -9.379604265191688e-05, -32
80.0, 9.684862838203179, 9.685406063020116, -0.0005432248169370268, -32
90.0, 10.053483617279058, 10.053807888542316, -0.0003242712632580691, -32
100.0, 10.38363087304419, 10.38429662222754, -0.0006657491833497176, -32
110.0, 10.709035988077249, 10.709589466339672, -0.000553478262423468, -32
120.0, 11.013174595052062, 11.013998460361613, -0.0008238653095506976, -32
130.0, 11.310935536159786, 11.311601680764559, -0.0006661446047733222, -32
140.0, 11.593233407586508, 11.594072555228486, -0.0008391476419777888, -32
150.0, 11.871499426494893, 11.872256794725718, -0.0007573682308255059, -32
160.0, 12.136854643581612, 12.137730150027979, -0.0008755064463663587, -32
170.0, 12.396216141472145, 12.397049099712728, -0.0008329582405828262, -32
180.0, 12.64239199846455, 12.643351812679311, -0.0009598142147613231, -32
190.0, 12.881065582469292, 12.881978835848706, -0.0009132533794140585, -32
200.0, 13.111850060354755, 13.11285254317913, -0.001002482824375761, -32
210.0, 13.333724786200303, 13.334667076289437, -0.0009422900891333796, -32
220.0, 13.5496102561526, 13.550635485695375, -0.0010252295427743974, -32
230.0, 13.758506443500751, 13.759465112744532, -0.000958669243781074, -32
240.0, 13.97496144172087, 13.976000872888154, -0.0010394311672836665, -32
250.0, 14.172577183323046, 14.17360215201498, -0.0010249686919348022, -32
260.0, 14.373947995523181, 14.375024001168626, -0.0010760056454444111, -32
270.0, 14.556862562236239, 14.557927474851216, -0.0010649126149768762, -32
280.0, 14.735449634096948, 14.736554970042212, -0.0011053359452635192, -32
290.0, 14.908942771008046, 14.910034707031809, -0.00109193602376223, -32
300.0, 15.075189674355677, 15.076328055398248, -0.0011383810425709129, -32
310.0, 15.235863579910458, 15.236985885577601, -0.0011223056671436638, -32
320.0, 15.394090330418562, 15.395234561815776, -0.0011442313972143126, -32
330.0, 15.545966420204014, 15.547108155853648, -0.0011417356496341569, -32
340.0, 15.693964773120792, 15.695139487139663, -0.00117471401887137, -32
350.0, 15.836991661327843, 15.83815424659892, -0.0011625852710768214, -32
360.0, 15.980841937408131, 15.982046135715537, -0.0012041983074055906, -32
370.0, 16.114321929172842, 16.11550464248038, -0.0011827133075392737, -32
380.0, 16.248903300623574, 16.250082966111318, -0.0011796654877436197, -32
390.0, 16.3770429889979, 16.37823062346321, -0.0011876344653103388, -32
400.0, 16.502938029115498, 16.50415383463217, -0.0012158055166722193, -32
410.0, 16.624017110096435, 16.62523059419885, -0.0012134841024149523, -32
420.0, 16.74238855125572, 16.74360154091313, -0.0012129896574109011, -32
430.0, 16.855466154713405, 16.856688670489067, -0.0012225157756624583, -32
440.0, 16.96599717746041, 16.967250462976807, -0.0012532855163982504, -32
450.0, 17.069159613576954, 17.070403309416044, -0.0012436958390900088, -32
460.0, 17.171565530702313, 17.172811556269817, -0.0012460255675037502, -32
470.0, 17.265990002158972, 17.267245599648426, -0.001255597489453919, -32
480.0, 17.358589398856115, 17.359849179680335, -0.0012597808242205133, -32
490.0, 17.446817018628735, 17.448075954519073, -0.0012589358903376535, -32
500.0, 17.524788817772382, 17.52607316612437, -0.001284348351987319, -32
0.0, 2.8244780673552183, 2.76294339236292, 0.06153467499229848, -20
10.0, 5.915205001625903, 5.872348631546748, 0.042856370079155326, -20
20.0, 6.855934936500469, 6.825008283439995, 0.030926653060473264, -20
30.0, 7.472037330901877, 7.451099213647979, 0.02093811725389827, -20
40.0, 7.980355740249941, 7.962295752057165, 0.018059988192775656, -20
50.0, 8.437536033893226, 8.424631472765439, 0.012904561127786707, -20
60.0, 8.864538204003573, 8.85476242950759, 0.009775774495983214, -20
70.0, 9.269351368622445, 9.260517550491215, 0.00883381813122952, -20
80.0, 9.652163063991274, 9.642533200586499, 0.009629863404775563, -20
90.0, 10.018595232009146, 10.007690253941622, 0.010904978067523885, -20
100.0, 10.36393325321069, 10.35427889805976, 0.009654355150928495, -20
110.0, 10.692797145777693, 10.684587870139408, 0.008209275638284552, -20
120.0, 11.005189114679242, 10.996955968790289, 0.008233145888953075, -20
130.0, 11.30076019986052, 11.293101125343414, 0.0076590745171056795, -20
140.0, 11.586486720012363, 11.57885355314385, 0.0076331668685138965, -20
150.0, 11.86011506725576, 11.852717197772858, 0.007397869482902664, -20
160.0, 12.128693451592554, 12.121655759742543, 0.0070376918500105745, -20
170.0, 12.386685715293579, 12.379972230838273, 0.006713484455305618, -20
180.0, 12.637387196656487, 12.630946656962928, 0.006440539693558733, -20
190.0, 12.878057633120843, 12.871849397783103, 0.006208235337739509, -20
200.0, 13.115062832145727, 13.109230281040848, 0.0058325511048789025, -20
210.0, 13.341448033337828, 13.33592480272501, 0.005523230612817898, -20
220.0, 13.559758081504128, 13.55450787828229, 0.005250203221837779, -20
230.0, 13.773336178100495, 13.768444813456867, 0.004891364643627938, -20
240.0, 13.950030945122972, 13.945583843720557, 0.004447101402414333, -20
250.0, 14.189939661666612, 14.185506510138598, 0.004433151528013823, -20
260.0, 14.36681962287542, 14.362790692777454, 0.004028930097966565, -20
270.0, 14.549411892540618, 14.545626863959356, 0.003785028581262395, -20
280.0, 14.723885499636992, 14.720316490765699, 0.003569008871293633, -20
290.0, 14.89583935584828, 14.892483187388375, 0.003356168459903941, -20
300.0, 15.066105422309775, 15.0630591830073, 0.003046239302474163, -20
310.0, 15.225356659395825, 15.222608629192756, 0.0027480302030689074, -20
320.0, 15.385019506196029, 15.382452514645431, 0.002566991550597919, -20
330.0, 15.5375488286326, 15.535203106026506, 0.002345722606094114, -20
340.0, 15.689116638259067, 15.687014109426844, 0.0021025288322231717, -20
350.0, 15.831758877009904, 15.829890229752204, 0.0018686472576998625, -20
360.0, 15.976373807222522, 15.974781323075959, 0.0015924841465633222, -20
370.0, 16.108953073796577, 16.107619735454097, 0.0013333383424800616, -20
380.0, 16.243433224485262, 16.24224781155685, 0.0011854129284110115, -20
390.0, 16.3704310436208, 16.36944823880119, 0.0009828048196105499, -20
400.0, 16.497776793462673, 16.497016192577377, 0.000760600885296725, -20
410.0, 16.616846826558593, 16.616306398419997, 0.0005404281385956722, -20
420.0, 16.736732261790536, 16.736405347281153, 0.00032691450938315825, -20
430.0, 16.848937686502467, 16.848848944525738, 8.874197672881223e-05, -20
440.0, 16.96035064613961, 16.960476679796365, -0.0001260336567554532, -20
450.0, 17.063962207585767, 17.06430807161691, -0.0003458640311428951, -20
460.0, 17.167955612061345, 17.1685113677134, -0.0005557556520550122, -20
470.0, 17.26165978327006, 17.26243918794928, -0.0007794046792213294, -20
480.0, 17.353806948736107, 17.354775188970958, -0.0009682402348509811, -20
490.0, 17.44153305249421, 17.442717878631207, -0.0011848261369955537, -20
500.0, 17.520755471464714, 17.522356595868843, -0.0016011244041287398, -20
0.0, 2.3953640919510146, 2.352885454463633, 0.042478637487381565, 0
10.0, 5.78678980518579, 5.714109413422526, 0.07268039176326369, 0
20.0, 6.785708671456884, 6.706781462181198, 0.07892720927568675, 0
30.0, 7.4694261935410164, 7.348988005951902, 0.12043818758911407, 0
40.0, 8.021391899336795, 7.834871085405828, 0.18652081393096687, 0
50.0, 8.495456859338198, 8.23089672490078, 0.2645601344374171, 0
60.0, 8.921552983436795, 8.572149339425925, 0.3494036440108701, 0
70.0, 9.315325677454029, 8.891111192291364, 0.4242144851626648, 0
80.0, 9.687234160670977, 9.202241841330133, 0.48499231934084364, 0
90.0, 10.037263056737485, 9.51511338870161, 0.5221496680358744, 0
100.0, 10.37301267683782, 9.835864513458066, 0.5371481633797544, 0
110.0, 10.696629286777407, 10.161267624538995, 0.5353616622384116, 0
120.0, 11.006127719395321, 10.498203773800881, 0.50792394559444, 0
130.0, 11.304526737600828, 10.841763907466719, 0.4627628301341087, 0
140.0, 11.592886023519009, 11.187191083957423, 0.4056949395615863, 0
150.0, 11.870771497531823, 11.53210701160472, 0.33866448592710263, 0
160.0, 12.138340686815898, 11.86778293632093, 0.27055775049496766, 0
170.0, 12.396606868765456, 12.185329141821066, 0.21127772694438995, 0
180.0, 12.642850853143262, 12.487566805962029, 0.15528404718123312, 0
190.0, 12.877140243732063, 12.768101891729879, 0.10903835200218381, 0
200.0, 13.102976496690008, 13.02941461766552, 0.07356187902448852, 0
210.0, 13.324431043222251, 13.2751897352181, 0.0492413080041505, 0
220.0, 13.538241613476316, 13.502644072239423, 0.03559754123689274, 0
230.0, 13.73979258818888, 13.715884886744139, 0.023907701444741747, 0
240.0, 13.935198983545797, 13.915789499077944, 0.019409484467853844, 0
250.0, 14.169009378017163, 14.149433780397894, 0.019575597619269303, 0
260.0, 14.375945848631668, 14.362671596246237, 0.013274252385430785, 0
270.0, 14.572829085790964, 14.564014785247268, 0.008814300543695808, 0
280.0, 14.73379615348653, 14.73256460372545, 0.0012315497610799753, 0
290.0, 14.901955696514975, 14.904320978409068, -0.0023652818940931297, 0
300.0, 15.064057688715266, 15.068479763306234, -0.004422074590967995, 0
310.0, 15.223943777680288, 15.231474756487119, -0.007530978806830291, 0
320.0, 15.383437597933906, 15.39309099221128, -0.00965339427737355, 0
330.0, 15.5337406950541, 15.54524642510949, -0.011505730055390018, 0
340.0, 15.687849462795855, 15.701335410147443, -0.013485947351588479, 0
350.0, 15.830532201929532, 15.847731675904264, -0.017199473974731205, 0
360.0, 15.974372796568359, 15.99393606359805, -0.01956326702969058, 0
370.0, 16.106369852910998, 16.12907829589134, -0.022708442980341914, 0
380.0, 16.241185434372053, 16.265488923335727, -0.024303488963674624, 0
390.0, 16.36779044144427, 16.393854862626046, -0.026064421181775543, 0
400.0, 16.493262214488045, 16.521372310291095, -0.028110095803050683, 0
410.0, 16.612846384134286, 16.642591839809285, -0.02974545567499831, 0
420.0, 16.73318256179463, 16.764536691743466, -0.03135412994883424, 0
430.0, 16.846610561817297, 16.879843168180397, -0.0332326063631001, 0
440.0, 16.95833715517646, 16.993625713350212, -0.03528855817375387, 0
450.0, 17.06153029835384, 17.09886282200669, -0.037332523652850114, 0
460.0, 17.16603090986359, 17.20513058344697, -0.03909967358337951, 0
470.0, 17.259921772386832, 17.301208062224287, -0.04128628983745486, 0
480.0, 17.352784227833816, 17.39544254751773, -0.04265831968391609, 0
490.0, 17.44101658773599, 17.48547513893576, -0.044458551199770824, 0
500.0, 17.521905373294484, 17.571222655250114, -0.049317281955630676, 0
0.0, 3.136616914443995, 3.1786739303064566, -0.0420570158624618, 20
10.0, 5.310341272102038, 5.337040492770362, -0.02669922066832431, 20
20.0, 6.650572607185013, 6.647660909279341, 0.0029116979056720282, 20
30.0, 7.4005657922817685, 7.326833674180141, 0.07373211810162772, 20
40.0, 7.95773370881542, 7.795150019735961, 0.16258368907945897, 20
50.0, 8.462911146555097, 8.181092024913294, 0.2818191216418029, 20
60.0, 8.904245131056804, 8.49921474811109, 0.40503038294571425, 20
70.0, 9.326740015693714, 8.800896011397105, 0.5258440042966086, 20
80.0, 9.708395598782918, 9.081273110649029, 0.6271224881338888, 20
90.0, 10.077637241499646, 9.368705757159747, 0.7089314843398995, 20
100.0, 10.411983756322229, 9.65236819398161, 0.7596155623406187, 20
110.0, 10.740446902756963, 9.959074685470839, 0.7813722172861244, 20
120.0, 11.04519450851325, 10.266231934097762, 0.7789625744154876, 20
130.0, 11.345456369733789, 10.590969797023298, 0.7544865727104906, 20
140.0, 11.626037825126637, 10.916469734503494, 0.7095680906231436, 20
150.0, 11.899810551800863, 11.250889502484137, 0.6489210493167263, 20
160.0, 12.157830226553115, 11.580438398706242, 0.5773918278468724, 20
170.0, 12.41328466267152, 11.917916834201582, 0.4953678284699379, 20
180.0, 12.651536681028382, 12.24027522059206, 0.4112614604363216, 20
190.0, 12.882356684732121, 12.556220551704282, 0.3261361330278394, 20
200.0, 13.102648347858091, 12.856184965711927, 0.24646338214616392, 20
210.0, 13.321314880193817, 13.138932014869813, 0.18238286532400494, 20
220.0, 13.53618044731413, 13.407730129392156, 0.12845031792197403, 20
230.0, 13.739482732172128, 13.660085534227049, 0.07939719794507916, 20
240.0, 13.954148167046078, 13.91359302914329, 0.040555137902789085, 20
250.0, 14.153490392352653, 14.147473754262014, 0.006016638090638793, 20
260.0, 14.389390425064754, 14.404820645561559, -0.015430220496805092, 20
270.0, 14.582771942890984, 14.612345576173082, -0.029573633282097944, 20
280.0, 14.748821929115879, 14.791172710350791, -0.042350781234912205, 20
290.0, 14.919303195442433, 14.970861418693698, -0.05155822325126458, 20
300.0, 15.07436267923953, 15.13226900510471, -0.057906325865181074, 20
310.0, 15.23156830329388, 15.291503829954856, -0.05993552666097557, 20
320.0, 15.382770960094222, 15.447581323283462, -0.06481036318924005, 20
330.0, 15.530659581038826, 15.597767212231119, -0.06710763119229313, 20
340.0, 15.682505869070138, 15.750827626827611, -0.06832175775747373, 20
350.0, 15.823484176494064, 15.894405600024493, -0.07092142353042874, 20
360.0, 15.967614136613184, 16.03910889395112, -0.07149475733793587, 20
370.0, 16.10398406531178, 16.1779433496534, -0.07395928434161902, 20
380.0, 16.23763253264956, 16.31281961621041, -0.07518708356085213, 20
390.0, 16.364388218523633, 16.440383001967966, -0.07599478344433308, 20
400.0, 16.491401786252972, 16.569321708170136, -0.07791992191716446, 20
410.0, 16.61115372573147, 16.690279068217233, -0.07912534248576364, 20
420.0, 16.731225055518454, 16.81158091791764, -0.08035586239918757, 20
430.0, 16.84530623295982, 16.927181166341015, -0.08187493338119367, 20
440.0, 16.956280574691753, 17.039804394742333, -0.0835238200505799, 20
450.0, 17.05954490269851, 17.14431774895447, -0.08477284625596226, 20
460.0, 17.162756250408215, 17.24862698183685, -0.08587073142863488, 20
470.0, 17.258538620392002, 17.346790870590898, -0.08825225019889515, 20
480.0, 17.352478035102234, 17.442236199511058, -0.08975816440882411, 20
490.0, 17.441714495251112, 17.532815072636776, -0.09110057738566368, 20
500.0, 17.521939995753186, 17.617326104824947, -0.09538610907176093, 20
0.0, 3.403296219520827, 3.5500719166441392, -0.1467756971233123, 30
10.0, 5.2881708291727705, 5.4378837582764525, -0.14971292910368206, 30
20.0, 6.560183650264666, 6.6610828003410845, -0.10089915007641803, 30
30.0, 7.327834431290828, 7.349340390454398, -0.021505959163570232, 30
40.0, 7.9332304741477575, 7.884319764441436, 0.0489107097063215, 30
50.0, 8.47087301923089, 8.344826586998956, 0.12604643223193435, 30
60.0, 8.912213364241522, 8.724920742284848, 0.18729262195667395, 30
70.0, 9.338825986399089, 9.072692564673355, 0.2661334217257334, 30
80.0, 9.716200988932577, 9.374901561030452, 0.34129942790212553, 30
90.0, 10.084090976252458, 9.670892495837503, 0.4131984804149553, 30
100.0, 10.42107297694061, 9.951193728257847, 0.4698792486827639, 30
110.0, 10.753477995972155, 10.245096210293994, 0.5083817856781607, 30
120.0, 11.059249691709656, 10.521638787359775, 0.5376109043498811, 30
130.0, 11.35984086169013, 10.8078164675408, 0.5520243941493295, 30
140.0, 11.640166654602613, 11.086910124701374, 0.5532565299012386, 30
150.0, 11.913981130335442, 11.372716024803287, 0.5412651055321547, 30
160.0, 12.172682598181169, 11.654586289210314, 0.5180963089708541, 30
170.0, 12.425348552095274, 11.950847108599966, 0.4745014434953081, 30
180.0, 12.663696839243713, 12.23885614423883, 0.42484069500488175, 30
190.0, 12.898178398334593, 12.530809445916656, 0.3673689524179373, 30
200.0, 13.121967881429967, 12.816811190021921, 0.3051566914080457, 30
210.0, 13.341064878501275, 13.093566304972377, 0.24749857352889748, 30
220.0, 13.553800816625433, 13.36541267264777, 0.18838814397766335, 30
230.0, 13.763143792620896, 13.630281370313567, 0.1328624223073298, 30
240.0, 13.979516391875345, 13.889108281587061, 0.09040811028828344, 30
250.0, 14.180825865023184, 14.130915943826706, 0.049909921196478635, 30
260.0, 14.394834113709955, 14.374740083645007, 0.020094030064948143, 30
270.0, 14.579974342339318, 14.58523869359421, -0.005264351254892219, 30
280.0, 14.752507846839453, 14.779734201133698, -0.02722635429424436, 30
290.0, 14.92087632126725, 14.963933037312495, -0.043056716045244414, 30
300.0, 15.080229510372604, 15.133591384422372, -0.05336187404976833, 30
310.0, 15.23536352562522, 15.295110259555907, -0.05974673393068741, 30
320.0, 15.38834219199177, 15.45087807080441, -0.06253587881264089, 30
330.0, 15.536481078072116, 15.602360363906127, -0.06587928583401137, 30
340.0, 15.684254974056216, 15.75297186580387, -0.06871689174765372, 30
350.0, 15.824158944547516, 15.895652250230144, -0.0714933056826279, 30
360.0, 15.966146038083258, 16.038174033434064, -0.0720279953508065, 30
370.0, 16.10201506734817, 16.174370444170005, -0.0723553768218359, 30
380.0, 16.236111253255405, 16.307791614884074, -0.07168036162866898, 30
390.0, 16.364764885704453, 16.436728626255217, -0.07196374055076404, 30
400.0, 16.491131486629943, 16.56405453418155, -0.07292304755160828, 30
410.0, 16.610559512704594, 16.68429312954615, -0.07373361684155455, 30
420.0, 16.730576854816135, 16.804817687405215, -0.07424083258907999, 30
430.0, 16.844879797913496, 16.9196993700025, -0.07481957208900525, 30
440.0, 16.95554442731122, 17.031507685479305, -0.07596325816808402, 30
450.0, 17.058192289582653, 17.134138025448433, -0.0759457358657798, 30
460.0, 17.161534129051496, 17.23785930128432, -0.0763251722328242, 30
470.0, 17.258046354907403, 17.33555985717376, -0.07751350226635623, 30
480.0, 17.351865833631383, 17.430694098762096, -0.0788282651307135, 30
490.0, 17.440998024952094, 17.519699255084966, -0.07870123013287156, 30
500.0, 17.520460257274543, 17.60062279208138, -0.08016253480683844, 30
