#height[m] U[m/s] V[m/s] W[m/s]
 0.0  -0.5828649205396423  -0.5828649205396423  -0.5828649205396423
10.0  -0.8901308162298833  -0.8901308162298833  -0.8901308162298833
20.0  -1.021155985350646  -1.021155985350646  -1.021155985350646
30.0  -1.0701118276955344  -1.0701118276955344  -1.0701118276955344
40.0  -1.0873469660612187  -1.0873469660612187  -1.0873469660612187
50.0  -1.0820113377795273  -1.0820113377795273  -1.0820113377795273
60.0  -1.0535124586596927  -1.0535124586596927  -1.0535124586596927
70.0  -1.0111414732634458  -1.0111414732634458  -1.0111414732634458
80.0  -0.9552453659894209  -0.9552453659894209  -0.9552453659894209
90.0  -0.8818924131832273  -0.8818924131832273  -0.8818924131832273
100.0  -0.7992191801527722  -0.7992191801527722  -0.7992191801527722
110.0  -0.7056878731134415  -0.7056878731134415  -0.7056878731134415
120.0  -0.6068596083797232  -0.6068596083797232  -0.6068596083797232
130.0  -0.49635659676174015  -0.49635659676174015  -0.49635659676174015
140.0  -0.38174781088239074  -0.38174781088239074  -0.38174781088239074
150.0  -0.2593286019565502  -0.2593286019565502  -0.2593286019565502
160.0  -0.13426907555917011  -0.13426907555917011  -0.13426907555917011
170.0  -0.005228209329746731  -0.005228209329746731  -0.005228209329746731
180.0  0.12612333450833257  0.12612333450833257  0.12612333450833257
190.0  0.26207922820667834  0.26207922820667834  0.26207922820667834
200.0  0.4010380692968373  0.4010380692968373  0.4010380692968373
210.0  0.5419933281144544  0.5419933281144544  0.5419933281144544
220.0  0.6859594687815282  0.6859594687815282  0.6859594687815282
230.0  0.8282716063322484  0.8282716063322484  0.8282716063322484
240.0  0.9770113344152174  0.9770113344152174  0.9770113344152174
250.0  1.1267163777785578  1.1267163777785578  1.1267163777785578
260.0  1.2955991338839408  1.2955991338839408  1.2955991338839408
270.0  1.4433779801111344  1.4433779801111344  1.4433779801111344
280.0  1.5940104155028874  1.5940104155028874  1.5940104155028874
290.0  1.740149242406409  1.740149242406409  1.740149242406409
300.0  1.8822708114823863  1.8822708114823863  1.8822708114823863
310.0  2.022266501278977  2.022266501278977  2.022266501278977
320.0  2.1671878743734094  2.1671878743734094  2.1671878743734094
330.0  2.308936518957273  2.308936518957273  2.308936518957273
340.0  2.45242626024125  2.45242626024125  2.45242626024125
350.0  2.5914468196602276  2.5914468196602276  2.5914468196602276
360.0  2.7370712533863633  2.7370712533863633  2.7370712533863633
370.0  2.8755631953511362  2.8755631953511362  2.8755631953511362
380.0  3.017421604777273  3.017421604777273  3.017421604777273
390.0  3.1511045887261364  3.1511045887261364  3.1511045887261364
400.0  3.2875410891465915  3.2875410891465915  3.2875410891465915
410.0  3.4159426584170456  3.4159426584170456  3.4159426584170456
420.0  3.5466459883999994  3.5466459883999994  3.5466459883999994
430.0  3.670269514375  3.670269514375  3.670269514375
440.0  3.7898572105965904  3.7898572105965904  3.7898572105965904
450.0  3.9008522742704543  3.9008522742704543  3.9008522742704543
460.0  4.014758835125  4.014758835125  4.014758835125
470.0  4.119319102178409  4.119319102178409  4.119319102178409
480.0  4.218149469881818  4.218149469881818  4.218149469881818
490.0  4.306634247154546  4.306634247154546  4.306634247154546
500.0  4.374399648057955  4.374399648057955  4.374399648057955
