#height[m] U[m/s] V[m/s] W[m/s]
 0.0  -0.37450841142729874  -0.37450841142729874  -0.37450841142729874
10.0  -0.8862881036604588  -0.8862881036604588  -0.8862881036604588
20.0  -1.0022259629996908  -1.0022259629996908  -1.0022259629996908
30.0  -1.0559445058652213  -1.0559445058652213  -1.0559445058652213
40.0  -1.0690987598733275  -1.0690987598733275  -1.0690987598733275
50.0  -1.0668152678631628  -1.0668152678631628  -1.0668152678631628
60.0  -1.0418722728583547  -1.0418722728583547  -1.0418722728583547
70.0  -1.0001434081247225  -1.0001434081247225  -1.0001434081247225
80.0  -0.9445245501449618  -0.9445245501449618  -0.9445245501449618
90.0  -0.8760510901692669  -0.8760510901692669  -0.8760510901692669
100.0  -0.7969524173594994  -0.7969524173594994  -0.7969524173594994
110.0  -0.703915446510105  -0.703915446510105  -0.703915446510105
120.0  -0.6065500125997181  -0.6065500125997181  -0.6065500125997181
130.0  -0.501420643931027  -0.501420643931027  -0.501420643931027
140.0  -0.3855677327970028  -0.3855677327970028  -0.3855677327970028
150.0  -0.2659856372154615  -0.2659856372154615  -0.2659856372154615
160.0  -0.14124220213466038  -0.14124220213466038  -0.14124220213466038
170.0  -0.010064439963425572  -0.010064439963425572  -0.010064439963425572
180.0  0.12551170765416514  0.12551170765416514  0.12551170765416514
190.0  0.257985360984945  0.257985360984945  0.257985360984945
200.0  0.39283886093067705  0.39283886093067705  0.39283886093067705
210.0  0.5342959513528792  0.5342959513528792  0.5342959513528792
220.0  0.6732583524681847  0.6732583524681847  0.6732583524681847
230.0  0.8124187650523176  0.8124187650523176  0.8124187650523176
240.0  0.9631066949496844  0.9631066949496844  0.9631066949496844
250.0  1.1332689919694776  1.1332689919694776  1.1332689919694776
260.0  1.3046121679088565  1.3046121679088565  1.3046121679088565
270.0  1.4418005955167326  1.4418005955167326  1.4418005955167326
280.0  1.580713503575546  1.580713503575546  1.580713503575546
290.0  1.7236571012948751  1.7236571012948751  1.7236571012948751
300.0  1.8689662257541477  1.8689662257541477  1.8689662257541477
310.0  2.015231676015  2.015231676015  2.015231676015
320.0  2.166262752155227  2.166262752155227  2.166262752155227
330.0  2.3115096308186365  2.3115096308186365  2.3115096308186365
340.0  2.4591056805711364  2.4591056805711364  2.4591056805711364
350.0  2.6025277952113637  2.6025277952113637  2.6025277952113637
360.0  2.7466909116079545  2.7466909116079545  2.7466909116079545
370.0  2.886831209711364  2.886831209711364  2.886831209711364
380.0  3.0276038611465914  3.0276038611465914  3.0276038611465914
390.0  3.159522044667045  3.159522044667045  3.159522044667045
400.0  3.294588017025  3.294588017025  3.294588017025
410.0  3.423128561890909  3.423128561890909  3.423128561890909
420.0  3.5533861716659088  3.5533861716659088  3.5533861716659088
430.0  3.678069373370455  3.678069373370455  3.678069373370455
440.0  3.798229605569318  3.798229605569318  3.798229605569318
450.0  3.911411537885227  3.911411537885227  3.911411537885227
460.0  4.023419036963636  4.023419036963636  4.023419036963636
470.0  4.127942918293181  4.127942918293181  4.127942918293181
480.0  4.22497884675  4.22497884675  4.22497884675
490.0  4.312303903953409  4.312303903953409  4.312303903953409
500.0  4.378340625213636  4.378340625213636  4.378340625213636
