#height[m] U[m/s] V[m/s] W[m/s]
 0.0  -0.4405472403480167  -0.4405472403480167  -0.4405472403480167
10.0  -0.9073068945107855  -0.9073068945107855  -0.9073068945107855
20.0  -1.0095087069706907  -1.0095087069706907  -1.0095087069706907
30.0  -1.0469848520217995  -1.0469848520217995  -1.0469848520217995
40.0  -1.061344035168198  -1.061344035168198  -1.061344035168198
50.0  -1.0523878912396767  -1.0523878912396767  -1.0523878912396767
60.0  -1.028561212170667  -1.028561212170667  -1.028561212170667
70.0  -0.9870566507034516  -0.9870566507034516  -0.9870566507034516
80.0  -0.9330830976484953  -0.9330830976484953  -0.9330830976484953
90.0  -0.8686545746896115  -0.8686545746896115  -0.8686545746896115
100.0  -0.7882402850656761  -0.7882402850656761  -0.7882402850656761
110.0  -0.6973490270082345  -0.6973490270082345  -0.6973490270082345
120.0  -0.6006915652204662  -0.6006915652204662  -0.6006915652204662
130.0  -0.49272217036511046  -0.49272217036511046  -0.49272217036511046
140.0  -0.3800512191121907  -0.3800512191121907  -0.3800512191121907
150.0  -0.25871477152795114  -0.25871477152795114  -0.25871477152795114
160.0  -0.13623961797559656  -0.13623961797559656  -0.13623961797559656
170.0  -0.007422387474922889  -0.007422387474922889  -0.007422387474922889
180.0  0.12485825265092601  0.12485825265092601  0.12485825265092601
190.0  0.2627559865674848  0.2627559865674848  0.2627559865674848
200.0  0.4049005437708665  0.4049005437708665  0.4049005437708665
210.0  0.5489935070179556  0.5489935070179556  0.5489935070179556
220.0  0.6932352997790113  0.6932352997790113  0.6932352997790113
230.0  0.837671937924876  0.837671937924876  0.837671937924876
240.0  0.9773161221446921  0.9773161221446921  0.9773161221446921
250.0  1.1533425346693738  1.1533425346693738  1.1533425346693738
260.0  1.2852841200698888  1.2852841200698888  1.2852841200698888
270.0  1.428791496806789  1.428791496806789  1.428791496806789
280.0  1.5765768306668522  1.5765768306668522  1.5765768306668522
290.0  1.7276036666209091  1.7276036666209091  1.7276036666209091
300.0  1.8774036378553032  1.8774036378553032  1.8774036378553032
310.0  2.0260442155345455  2.0260442155345455  2.0260442155345455
320.0  2.1744376123179547  2.1744376123179547  2.1744376123179547
330.0  2.321242378307386  2.321242378307386  2.321242378307386
340.0  2.467741392204432  2.467741392204432  2.467741392204432
350.0  2.6113614137975003  2.6113614137975003  2.6113614137975003
360.0  2.7564579660522726  2.7564579660522726  2.7564579660522726
370.0  2.897398598720455  2.897398598720455  2.897398598720455
380.0  3.0372390474852273  3.0372390474852273  3.0372390474852273
390.0  3.171328498520454  3.171328498520454  3.171328498520454
400.0  3.307145011734091  3.307145011734091  3.307145011734091
410.0  3.436747576278409  3.436747576278409  3.436747576278409
420.0  3.566628740281818  3.566628740281818  3.566628740281818
430.0  3.690006241851137  3.690006241851137  3.690006241851137
440.0  3.8099188164375004  3.8099188164375004  3.8099188164375004
450.0  3.9243269405829544  3.9243269405829544  3.9243269405829544
460.0  4.036394160594318  4.036394160594318  4.036394160594318
470.0  4.139318889725001  4.139318889725001  4.139318889725001
480.0  4.235211175068182  4.235211175068182  4.235211175068182
490.0  4.321963595796591  4.321963595796591  4.321963595796591
500.0  4.386480341644318  4.386480341644318  4.386480341644318
