#height[m] U[m/s] V[m/s] W[m/s]
 0.0  -0.528471369140882  3.091649497022045  -0.0214263221443102
10.0  -0.8665360319111477  5.239109420948864  0.018723487676277416
20.0  -1.0115744005247758  6.573152053293182  -0.009517240777930317
30.0  -1.0649747255107416  7.323506248747727  0.019678423483162195
40.0  -1.0819771092254558  7.8838058259181825  -0.00608220409285608
50.0  -1.0753266085686015  8.394284771407953  0.017391613675683926
60.0  -1.049870545418961  8.842111937068182  -0.0037221629669724437
70.0  -1.0072504105956694  9.27216988983409  0.015287501020202921
80.0  -0.9481755907820961  9.661963218589772  -0.0018601298712508341
90.0  -0.8798414229022444  10.039137884105681  0.013361677540060705
100.0  -0.7990358243971007  10.381261843639772  -0.0002720021273912937
110.0  -0.7095062486745337  10.716968207407954  0.011498309294696087
120.0  -0.6086093317985359  11.028396114347727  0.0009024605453908477
130.0  -0.4989953413001029  11.33445922710568  0.009611002116191224
140.0  -0.3831852659674359  11.619704445789774  0.0017793755368764868
150.0  -0.26396757274188914  11.896865559580682  0.007910814264410693
160.0  -0.13786207548507692  12.157034602715907  0.0025106262448068243
170.0  -0.00916594273345335  12.413266957863636  0.006589669977714663
180.0  0.12289109620827773  12.650924967602272  0.0033415744778888044
190.0  0.255934733365597  12.879799081045455  0.005479782101890658
200.0  0.3921819808586486  13.0967636005  0.0040452642938609675
210.0  0.5320787745985645  13.310674391363637  0.004516113865228307
220.0  0.6755689850060936  13.519302299636363  0.0046532985784313455
230.0  0.8116746624625714  13.715474845465911  0.003589649652381659
240.0  0.9603930910627547  13.921045822204546  0.005114153910100554
250.0  1.1111047861107728  14.109795957625002  0.002828660228479151
260.0  1.3084313238595326  14.329763774795454  0.005248588389314535
270.0  1.446713157930091  14.510820417488635  0.0022132069985277463
280.0  1.5911666991123863  14.662729249977271  0.005649111711304615
290.0  1.7327500682643637  14.81832863531818  0.0016666908993974168
300.0  1.876237402753409  14.957132967386364  0.005713305766163281
310.0  2.017687557009091  15.097327142488636  0.0010632554299726466
320.0  2.162228553129193  15.230039087613637  0.005672803841766209
330.0  2.302648589773068  15.359000557  0.0005643533252208649
340.0  2.44971579185  15.489983987579546  0.005712616691336093
350.0  2.5904156765775004  15.610001377659092  0.0002920097947667515
360.0  2.7356934787443183  15.731510608659091  0.005860663741258722
370.0  2.875912472614773  15.845099818875001  -2.6398535795515154e-05
380.0  3.0178576944761364  15.95471807955682  0.005945248773130337
390.0  3.1509527167488636  16.058160937818183  -0.0001963647891852028
400.0  3.287434565630682  16.160413328045458  0.006058604852807094
410.0  3.415669055057955  16.256182278568183  -0.0004170663903739384
420.0  3.5462935088113636  16.351069521227274  0.006198481736297429
430.0  3.6691492310090905  16.440847580011365  -0.000548002209750284
440.0  3.789552790773863  16.527387866375  0.006238059750911114
450.0  3.901710677459091  16.607365494352276  -0.0006709073312226844
460.0  4.014960091646591  16.68652667675  0.006350883117451983
470.0  4.119348107638636  16.759714743045457  -0.0007545940249699246
480.0  4.218075847054545  16.83200081768182  0.00642333649267936
490.0  4.3067695284795455  16.901629851295453  -0.0008477513431557751
500.0  4.374455387759091  16.967100066193183  0.0064296278514781036
