#height[m] U[m/s] V[m/s] W[m/s]
 0.0  -0.5850815358310477  -0.5850815358310477  -0.5850815358310477
10.0  -0.8725135446028411  -0.8725135446028411  -0.8725135446028411
20.0  -0.9819382962294739  -0.9819382962294739  -0.9819382962294739
30.0  -1.0146660742426339  -1.0146660742426339  -1.0146660742426339
40.0  -1.0139064960475266  -1.0139064960475266  -1.0139064960475266
50.0  -0.9870122961239178  -0.9870122961239178  -0.9870122961239178
60.0  -0.9388202078781438  -0.9388202078781438  -0.9388202078781438
70.0  -0.8732801324932566  -0.8732801324932566  -0.8732801324932566
80.0  -0.8031765372342167  -0.8031765372342167  -0.8031765372342167
90.0  -0.7261402309855444  -0.7261402309855444  -0.7261402309855444
100.0  -0.6476879657847637  -0.6476879657847637  -0.6476879657847637
110.0  -0.5675385927406253  -0.5675385927406253  -0.5675385927406253
120.0  -0.4947928010530596  -0.4947928010530596  -0.4947928010530596
130.0  -0.41545865351546163  -0.41545865351546163  -0.41545865351546163
140.0  -0.33379961803417774  -0.33379961803417774  -0.33379961803417774
150.0  -0.24382931405481564  -0.24382931405481564  -0.24382931405481564
160.0  -0.15153703361883514  -0.15153703361883514  -0.15153703361883514
170.0  -0.052216772938631494  -0.052216772938631494  -0.052216772938631494
180.0  0.05900202504632638  0.05900202504632638  0.05900202504632638
190.0  0.1834462034934702  0.1834462034934702  0.1834462034934702
200.0  0.3154037777651596  0.3154037777651596  0.3154037777651596
210.0  0.4548232592194809  0.4548232592194809  0.4548232592194809
220.0  0.5999730445844306  0.5999730445844306  0.5999730445844306
230.0  0.750026078787132  0.750026078787132  0.750026078787132
240.0  0.9069495179864284  0.9069495179864284  0.9069495179864284
250.0  1.0648871020636659  1.0648871020636659  1.0648871020636659
260.0  1.2377035666265872  1.2377035666265872  1.2377035666265872
270.0  1.3909269866329708  1.3909269866329708  1.3909269866329708
280.0  1.5499733157979674  1.5499733157979674  1.5499733157979674
290.0  1.6998887919865004  1.6998887919865004  1.6998887919865004
300.0  1.8475934279653023  1.8475934279653023  1.8475934279653023
310.0  1.9919676334480056  1.9919676334480056  1.9919676334480056
320.0  2.1376812183255227  2.1376812183255227  2.1376812183255227
330.0  2.281490867136307  2.281490867136307  2.281490867136307
340.0  2.4255279342449456  2.4255279342449456  2.4255279342449456
350.0  2.567678230695682  2.567678230695682  2.567678230695682
360.0  2.7140821187502273  2.7140821187502273  2.7140821187502273
370.0  2.855247299276136  2.855247299276136  2.855247299276136
380.0  2.9967733429727277  2.9967733429727277  2.9967733429727277
390.0  3.130579049917045  3.130579049917045  3.130579049917045
400.0  3.268347021231818  3.268347021231818  3.268347021231818
410.0  3.3973819108056817  3.3973819108056817  3.3973819108056817
420.0  3.529694979870454  3.529694979870454  3.529694979870454
430.0  3.6546613740681817  3.6546613740681817  3.6546613740681817
440.0  3.7759939372829545  3.7759939372829545  3.7759939372829545
450.0  3.887833278239773  3.887833278239773  3.887833278239773
460.0  4.0021262316943185  4.0021262316943185  4.0021262316943185
470.0  4.109229426368183  4.109229426368183  4.109229426368183
480.0  4.210033749429545  4.210033749429545  4.210033749429545
490.0  4.300017186603409  4.300017186603409  4.300017186603409
500.0  4.371162250982954  4.371162250982954  4.371162250982954
