#height[m] U[m/s] V[m/s] W[m/s]
 0.0  -0.5828649205396423  3.352845494285341  -0.01930179270483988
10.0  -0.8901308162298833  5.212627483814772  0.01536997581538088
20.0  -1.021155985350646  6.480145685844318  -0.021611751209692873
30.0  -1.0701118276955344  7.249231334647727  0.011410315511654905
40.0  -1.0873469660612187  7.858327331531818  -0.018575195466918094
50.0  -1.0820113377795273  8.401455292967047  0.010084075580994653
60.0  -1.0535124586596927  8.849698048907955  -0.016233138251336286
70.0  -1.0111414732634458  9.28390345452159  0.007995418760308544
80.0  -0.9552453659894209  9.669108555839774  -0.015149743099958446
90.0  -0.8818924131832273  10.04542866005682  0.005932005175560358
100.0  -0.7992191801527722  10.390357975837501  -0.014105086008781189
110.0  -0.7056878731134415  10.7302764057875  0.004135417060446666
120.0  -0.6068596083797232  11.04256802826591  -0.013373292054634174
130.0  -0.49635659676174015  11.348970570517045  0.002330418658747649
140.0  -0.38174781088239074  11.63388310611591  -0.0129219655425233
150.0  -0.2593286019565502  11.911137785792043  0.0006695529787640841
160.0  -0.13426907555917011  12.17192732583409  -0.012567845270238614
170.0  -0.005228209329746731  12.425333391069316  -0.0007203883742565574
180.0  0.12612333450833257  12.663052030727272  -0.012018795336228431
190.0  0.26207922820667834  12.895496955397727  -0.0018288675817698405
200.0  0.4010380692968373  13.11582001068182  -0.011777659006030722
210.0  0.5419933281144544  13.330033274556818  -0.0031524408386104426
220.0  0.6859594687815282  13.536417008284094  -0.01160967342788903
230.0  0.8282716063322484  13.738182812056818  -0.004141817389461361
240.0  0.9770113344152174  13.945320923772726  -0.011483178054106584
250.0  1.1267163777785578  14.135982121727272  -0.0052443574536012475
260.0  1.2955991338839408  14.336398008443181  -0.011296430643132311
270.0  1.4433779801111344  14.508339776738636  -0.0059644664383017125
280.0  1.5940104155028874  14.666126511068182  -0.010759183953585057
290.0  1.740149242406409  14.819046223329547  -0.00663842348540181
300.0  1.8822708114823863  14.962287566920454  -0.01047535657946586
310.0  2.022266501278977  15.100541522397727  -0.007300336047545803
320.0  2.1671878743734094  15.234962041568183  -0.010301962371591382
330.0  2.308936518957273  15.363943610556817  -0.008059252889899641
340.0  2.45242626024125  15.491323759590909  -0.010186675655243222
350.0  2.5914468196602276  15.61051242946591  -0.008563448795118705
360.0  2.7370712533863633  15.729781216125  -0.009913070718712749
370.0  2.8755631953511362  15.843161404261364  -0.008898965312407654
380.0  3.017421604777273  15.953251178261361  -0.009489005770002633
390.0  3.1511045887261364  16.05851320140909  -0.009212838799177501
400.0  3.2875410891465915  16.160114512670454  -0.00903908319346073
410.0  3.4159426584170456  16.255518112170453  -0.009392063661038721
420.0  3.5466459883999994  16.350332181511366  -0.008689289751893956
430.0  3.670269514375  16.44016234775  -0.009658752881342842
440.0  3.7898572105965904  16.526564108238635  -0.00835288838220232
450.0  3.9008522742704543  16.606177960795453  -0.009880737518139554
460.0  4.014758835125  16.685318407829545  -0.007932149559761886
470.0  4.119319102178409  16.759214788090908  -0.009984755356359395
480.0  4.218149469881818  16.831351425840907  -0.007555890798282014
490.0  4.306634247154546  16.900925022863635  -0.010091143088800944
500.0  4.374399648057955  16.965586085306818  -0.007135578688734799
