#height[m] U[m/s] V[m/s] W[m/s]
 0.0  -0.45447507956138394  2.787448445026297  -0.023725976000991526
10.0  -0.9302288696608667  5.8415094764352276  -0.023313661372913925
20.0  -1.0298531911017756  6.778078222193182  -0.022736832757411767
30.0  -1.0647846818710014  7.395731309811364  -0.018308916520961043
40.0  -1.0780292786744703  7.907159950139774  -0.017524543421342527
50.0  -1.0710640738548631  8.36923142666932  -0.014199113932338076
60.0  -1.0436518819206853  8.802852591214773  -0.013955287748959542
70.0  -1.0027924357635536  9.214914913288636  -0.011389988477237574
80.0  -0.9485409269358135  9.605410784605683  -0.011085127894740747
90.0  -0.881055551554943  9.979750311931818  -0.008950377263432676
100.0  -0.7991461400769552  10.333050580895453  -0.008903705031386253
110.0  -0.7093714202077291  10.669216324995455  -0.0072275604337413155
120.0  -0.6116799854281197  10.988152055331819  -0.007216734621324023
130.0  -0.5038198105859584  11.289502092068183  -0.006097130351975563
140.0  -0.390979341750909  11.579864223873862  -0.006294436707565136
150.0  -0.26897912934870905  11.857039042400002  -0.005597812165909517
160.0  -0.14617023699096532  12.127787002023863  -0.0060862939215101265
170.0  -0.01684977686186327  12.3866530995875  -0.005664867616633038
180.0  0.11562839115849244  12.636841976901136  -0.00621726849369997
190.0  0.25396175545234057  12.875536671875  -0.0060202322638428
200.0  0.3962000016852929  13.109062707318182  -0.006762887973607721
210.0  0.5406910954880138  13.330470331249998  -0.007016371026005127
220.0  0.6851124979518748  13.542424040420455  -0.0079805713452881
230.0  0.8297283917909385  13.748307011840907  -0.008782979116146056
240.0  0.9695333139400242  13.916282601920454  -0.009868594206947426
250.0  1.1459042939388755  14.143580018863636  -0.010548682122856668
260.0  1.2778367864023772  14.309865095750002  0.003987035014638707
270.0  1.4215884687832272  14.479783467636365  -0.009307130950238846
280.0  1.569508305324756  14.639982931704544  0.003014543623868674
290.0  1.7206659058214888  14.796113795045455  -0.00819940501029908
300.0  1.870545443638692  14.949524797545456  0.0021162109939930453
310.0  2.019303874006704  15.090845215465912  -0.007229968664358944
320.0  2.167795067649091  15.231521045443182  0.0015247359709241537
330.0  2.314713174676364  15.364156429136365  -0.006349604642770232
340.0  2.461250831114432  15.494851151795453  0.0009805034585448533
350.0  2.604929840825341  15.615975983863637  -0.005534092410615047
360.0  2.750080945205682  15.737894688272727  0.0005729308383716973
370.0  2.891064476496591  15.847392174238637  -0.004919567595296229
380.0  3.030978387247727  15.958134678181818  0.0002859628290415268
390.0  3.1651201244352274  16.061532494795454  -0.004399180872293382
400.0  3.3009485096761364  16.164163766375  9.626638948606402e-05
410.0  3.4305541477818178  16.258866163795457  -0.00390875641642501
420.0  3.560463021957954  16.353628231761366  -4.0814350242601786e-05
430.0  3.6837958570909084  16.441295067522727  -0.0035739009828760836
440.0  3.8036730946022725  16.528321325568182  -0.00014621661196563627
450.0  3.918063046760227  16.608054319113634  -0.0032807837802283847
460.0  4.030106029461364  16.688224471931818  -0.00018214260784525315
470.0  4.132959106477273  16.75957800728409  -0.0030414170992134905
480.0  4.228761898280681  16.830689044056818  -0.00019246876117693718
490.0  4.315318714969318  16.899261185295455  -0.002861703701711975
500.0  4.379535785660227  16.96456556373864  -7.234623172580521e-05
