#height[m] U[m/s] V[m/s] W[m/s] 
 0.0  -0.5308019214272517  -0.5308019214272517  -0.5308019214272517
10.0  -0.6882090713665429  -0.6882090713665429  -0.6882090713665429
20.0  -0.8456162218660859  -0.8456162218660859  -0.8456162218660859
30.0  -0.887518306646806  -0.887518306646806  -0.887518306646806
40.0  -0.9294203919531845  -0.9294203919531845  -0.9294203919531845
50.0  -0.9402026498739555  -0.9402026498739555  -0.9402026498739555
60.0  -0.9509849079397096  -0.9509849079397096  -0.9509849079397096
70.0  -0.949501998597948  -0.949501998597948  -0.949501998597948
80.0  -0.9480190893431437  -0.9480190893431437  -0.9480190893431437
90.0  -0.9460715235846676  -0.9460715235846676  -0.9460715235846676
100.0  -0.9441239573608945  -0.9441239573608945  -0.9441239573608945
110.0  -0.9406072955676237  -0.9406072955676237  -0.9406072955676237
120.0  -0.9370906334733047  -0.9370906334733047  -0.9370906334733047
130.0  -0.9327118222543375  -0.9327118222543375  -0.9327118222543375
140.0  -0.9283330116488494  -0.9283330116488494  -0.9283330116488494
150.0  -0.9270007390778301  -0.9270007390778301  -0.9270007390778301
160.0  -0.9256684665185441  -0.9256684665185441  -0.9256684665185441
170.0  -0.9231468309173207  -0.9231468309173207  -0.9231468309173207
180.0  -0.9206251942899044  -0.9206251942899044  -0.9206251942899044
190.0  -0.9217247887640428  -0.9217247887640428  -0.9217247887640428
200.0  -0.9228243835068887  -0.9228243835068887  -0.9228243835068887
210.0  -0.9271248733859863  -0.9271248733859863  -0.9271248733859863
220.0  -0.9314253626029138  -0.9314253626029138  -0.9314253626029138
230.0  -0.9299832072967171  -0.9299832072967171  -0.9299832072967171
240.0  -0.9285410510341847  -0.9285410510341847  -0.9285410510341847
250.0  -0.9288021286714035  -0.9288021286714035  -0.9288021286714035
260.0  -0.9290632068197506  -0.9290632068197506  -0.9290632068197506
270.0  -0.9315338634127612  -0.9315338634127612  -0.9315338634127612
280.0  -0.934004520772747  -0.934004520772747  -0.934004520772747
290.0  -0.9332951863533572  -0.9332951863533572  -0.9332951863533572
300.0  -0.9325858528170753  -0.9325858528170753  -0.9325858528170753
310.0  -0.93225342331316  -0.93225342331316  -0.93225342331316
320.0  -0.9319209932125514  -0.9319209932125514  -0.9319209932125514
330.0  -0.9316552513821352  -0.9316552513821352  -0.9316552513821352
340.0  -0.9313895101167705  -0.9313895101167705  -0.9313895101167705
350.0  -0.9284757000129994  -0.9284757000129994  -0.9284757000129994
360.0  -0.9255618894193648  -0.9255618894193648  -0.9255618894193648
370.0  -0.9221081307690616  -0.9221081307690616  -0.9221081307690616
380.0  -0.9186543721655791  -0.9186543721655791  -0.9186543721655791
390.0  -0.9127786703307369  -0.9127786703307369  -0.9127786703307369
400.0  -0.9069029695918078  -0.9069029695918078  -0.9069029695918078
410.0  -0.901065462518305  -0.901065462518305  -0.901065462518305
420.0  -0.8952279546789177  -0.8952279546789177  -0.8952279546789177
430.0  -0.8870984632704385  -0.8870984632704385  -0.8870984632704385
440.0  -0.8789689723082055  -0.8789689723082055  -0.8789689723082055
450.0  -0.8706646304821831  -0.8706646304821831  -0.8706646304821831
460.0  -0.8623602887056842  -0.8623602887056842  -0.8623602887056842
470.0  -0.8541696594166353  -0.8541696594166353  -0.8541696594166353
480.0  -0.8459790304207059  -0.8459790304207059  -0.8459790304207059
490.0  -0.8363936145273451  -0.8363936145273451  -0.8363936145273451
500.0  -0.8268081982184137  -0.8268081982184137  -0.8268081982184137
