#height[m] U[m/s] V[m/s] W[m/s]
 0.0  -0.6076587536819139  3.5923822869807958  -0.02071043039881222
10.0  -0.9063138098860619  5.446910783659091  0.016383200267522647
20.0  -1.030904044815774  6.622908563951137  -0.024028606732612624
30.0  -1.07422463138368  7.290731144245453  0.00982035557962014
40.0  -1.0844311049041802  7.851549586193182  -0.02251750956105133
50.0  -1.0763584000896393  8.366738302042046  0.007142259136454308
60.0  -1.0508244477988307  8.819477373696591  -0.01962351308769774
70.0  -1.0068701734390713  9.25356384187841  0.005799815366047194
80.0  -0.9500020843603403  9.638672260697728  -0.017296789741575648
90.0  -0.8764466284416846  10.015501565435226  0.004357862025526876
100.0  -0.7970961870677026  10.353630104902273  -0.015287188431575014
110.0  -0.7040928787755925  10.686391485821591  0.0031510433039433714
120.0  -0.6053097206996335  10.997326686887499  -0.013681494313794531
130.0  -0.49842194443250776  11.30059090938068  0.002033670355516605
140.0  -0.3832567657465182  11.58771506158409  -0.012325068891375204
150.0  -0.2657359678337709  11.869258946204546  0.00116028435144225
160.0  -0.14133166731687863  12.136882528814771  -0.011282399420680345
170.0  -0.013939241009366402  12.397019393220454  0.00022125236970591545
180.0  0.117961379238374  12.642781710670455  -0.010273463147595769
190.0  0.25656848851693226  12.879403660704543  -0.0005048411881416158
200.0  0.39572025842220376  13.106860061329547  -0.00948726785065242
210.0  0.5384242756449973  13.323774510170455  -0.0014320548890610677
220.0  0.6809124498763692  13.533504260113636  -0.008885698301139444
230.0  0.8250990381927724  13.734689531704547  -0.002269024673493864
240.0  0.9793616649319334  13.941627271204545  -0.008490260639135851
250.0  1.1267436045029555  14.12872938184091  -0.002781018001830593
260.0  1.2816590353687196  14.317758328636364  -0.007840167158883868
270.0  1.42650369913348  14.487856498749998  -0.003035149731454424
280.0  1.5784580162231618  14.651765519624998  -0.0070187864848450235
290.0  1.7267087944410113  14.809704586409094  -0.0032016803781227733
300.0  1.8779840995345376  14.95889593481818  -0.006219917819814241
310.0  2.025970270923409  15.101686381568184  -0.0035045407609946145
320.0  2.173195558221591  15.24107022593182  -0.005690990381809547
330.0  2.317633490204091  15.373381657204545  -0.0037778268400226393
340.0  2.465270378463182  15.50030933234091  -0.005242263117212561
350.0  2.607445657830682  15.62203964668182  -0.004146201930638661
360.0  2.7533026718079543  15.743089426136365  -0.004851446365188128
370.0  2.893854932131818  15.853542967170453  -0.00437112013059718
380.0  3.0351565753022727  15.96410916668182  -0.00435598798496912
390.0  3.1688208412931815  16.068751666011362  -0.004522584242221028
400.0  3.304511191922727  16.169944438215907  -0.0038417800307859328
410.0  3.433923294523863  16.266723395022726  -0.00473900844979095
420.0  3.564975416278409  16.359676186261364  -0.0034516622705174265
430.0  3.687833566227273  16.448334406977274  -0.004922554978807252
440.0  3.807896315776136  16.534431022363638  -0.003094030686940746
450.0  3.921003926596591  16.613979065693183  -0.005005898973104359
460.0  4.032877367704546  16.692551117670455  -0.002630649717356211
470.0  4.136049505798863  16.76456973925  -0.005042432950757112
480.0  4.232452043895455  16.835992782363636  -0.0021807569714839404
490.0  4.318615095819318  16.90517298394318  -0.00508000292247486
500.0  4.382599880363637  16.969266752329546  -0.0018315543915581845
