#height[m] U[m/s] V[m/s] W[m/s]
 0.0  -0.35345244608522264  4.32114755886033  -0.033615048590106424
10.0  -0.4753281731894543  5.7145425341875  -0.0048170468869112556
20.0  -0.5972038994842119  7.107937510503409  0.02398095496089653
30.0  -0.6385042560732868  7.672883194390908  -0.00042036958403345037
40.0  -0.6798046129724966  8.237828878014772  -0.024821694304466648
50.0  -0.6874701655806824  8.442059985822727  -0.0001488325314194594
60.0  -0.695135717889942  8.646291093578409  0.024524029152324198
70.0  -0.6993449683806715  8.76800940674318  0.003848633627868525
80.0  -0.7035542190117048  8.889727722557955  -0.016826761732843847
90.0  -0.7086338728092432  8.970811811836365  0.004234327301020386
100.0  -0.7137135259718224  9.051895903261363  0.025295416114870788
110.0  -0.7197065642910968  9.099364292560228  0.007378916271326055
120.0  -0.7256996011980722  9.146832681225  -0.010537583636656501
130.0  -0.7309413901207962  9.195956267551136  0.007404780748876909
140.0  -0.7361831789552445  9.245079856795455  0.025347145122894453
150.0  -0.741296665573278  9.26998951570909  0.010001334724518331
160.0  -0.7464101522453231  9.294899170926136  -0.005344476023732789
170.0  -0.750350737230622  9.330078248288636  0.01015680369659168
180.0  -0.7542913223979199  9.365257328360228  0.025658083840208276
190.0  -0.7564512407945295  9.385491653463637  0.012741866173289542
200.0  -0.7586111587492644  9.405725973786364  -0.00017435129872140465
210.0  -0.7614163960555929  9.434144832444318  0.012935964093951108
220.0  -0.7642216334423526  9.46256369157841  0.026046279484183425
230.0  -0.7671890299106953  9.47692654694091  0.01544607142364247
240.0  -0.7701564265706802  9.491289402448864  0.004845863014351708
250.0  -0.7740905573732887  9.51466697737841  0.016282896961900568
260.0  -0.7780246887538819  9.538044545268184  0.027719931017616575
270.0  -0.7832936295379505  9.547505250469317  0.018894975284431657
280.0  -0.7885625706073288  9.556965957230682  0.01007001937706772
290.0  -0.7923573939500443  9.574863665772728  0.020111796695739214
300.0  -0.7961522182358768  9.592761373403409  0.030153573610686407
310.0  -0.8009484600759277  9.596437208295455  0.022598357234685548
320.0  -0.8057447013487031  9.600113044517045  0.015043141200860352
330.0  -0.8109861661537161  9.611937099810227  0.02394805571979668
340.0  -0.816227632132067  9.623761153948863  0.03285297019662355
350.0  -0.8191033432647606  9.624635250355682  0.02695347834991094
360.0  -0.8219790552613577  9.625509350021591  0.021053986391081435
370.0  -0.8224248025233473  9.631923687531819  0.028755304395027173
380.0  -0.8228705501762037  9.63833802525909  0.03645662301310112
390.0  -0.8244705684527475  9.634911357279545  0.03127173829597053
400.0  -0.8260705862459041  9.631484689986364  0.02608685410633522
410.0  -0.8301187963600263  9.634030545661364  0.03262817738236437
420.0  -0.8341670063708025  9.636576407681819  0.03916950032078917
430.0  -0.8373224159604892  9.632765894773863  0.03443663701797816
440.0  -0.8404778258468641  9.628955380582955  0.02970377300903217
450.0  -0.8442333125800547  9.632421650302271  0.03515577956876427
460.0  -0.8479887994921493  9.635887909014773  0.040607785314532636
470.0  -0.8522547397397459  9.634078920852273  0.03617462033732705
480.0  -0.8565206791279821  9.632269934481819  0.031741455273784844
490.0  -0.8591457930376667  9.636046917489773  0.036384648785506186
500.0  -0.861770906793408  9.639823903179545  0.04102784222244841
